2031.8113	5686
2030.2302	5679.5
2028.6489	5757
2027.0673	5641.5
2025.4854	5597.5
2023.9032	5647.5
2022.3207	5563.5
2020.7379	5673.5
2019.153	5694
2017.5696	5619
2015.986	5562.5
2014.402	5634
2012.8177	5690
2011.2333	5620.5
2009.6484	5503
2008.0634	5535
2006.4762	5633
2004.8905	5567.5
2003.3046	5652.5
2001.7183	5595.5
2000.1317	5634.5
1998.5431	5600.5
1996.9559	5589
1995.3685	5593
1993.7809	5460.5
1992.191	5579.5
1990.6028	5639.5439
1989.0143	5579
1987.4254	5533
1985.8344	5619.5
1984.245	5472.5
1982.6553	5596.5
1981.0634	5457.5
1979.4731	5481.5
1977.8826	5528
1976.2898	5567.5
1974.6986	5606
1973.1072	5480
1971.5135	5540.5
1969.9215	5541.5
1968.3292	5506.5439
1966.7347	5576.5
1965.1418	5592.5
1963.5468	5511
1961.9532	5461.5
1960.3577	5494.5
1958.7635	5450.5
1957.1692	5540.5
1955.5728	5566.5
1953.9778	5568.5
1952.3806	5504
1950.7852	5558.5
1949.1875	5414
1947.5913	5593.5
1945.993	5414
1944.3964	5515.5
1942.7975	5469
1941.2003	5495.5
1939.6008	5635
1938.0029	5501.5
1936.403	5543
1934.8026	5516.5
1933.204	5571
1931.603	5542
1930.0037	5390.5
1928.4022	5478.5
1926.8004	5386.5
1925.2002	5493
1923.5979	5428
1921.9971	5439.5
1920.3942	5533.5
1918.7909	5518.5
1917.1892	5475.5
1915.5854	5366.5439
1913.9813	5370.5
1912.377	5545.5439
1910.774	5404
1909.1691	5516
1907.5637	5446
1905.9601	5386.5
1904.3541	5387.5
1902.748	5478
1901.1415	5461
1899.5366	5469
1897.9296	5362.5
1896.3223	5377.5439
1894.7146	5381
1893.1067	5406
1891.5002	5408
1889.8917	5443
1888.283	5331.5
1886.6738	5374
1885.0643	5336.5439
1883.4547	5307.5439
1881.8466	5383.5
1880.2362	5447.5439
1878.6256	5511.5
1877.0148	5398
1875.4036	5445
1873.792	5342
1872.1803	5407.5
1870.5682	5431
1868.9558	5438.5439
1867.3431	5414.5
1865.7321	5328.5
1864.1188	5332.5
1862.5052	5442
1860.8914	5281
1859.2772	5415.5
1857.6628	5329.5
1856.0481	5265.5439
1854.433	5314
1852.8176	5357.5
1851.202	5313.5
1849.5861	5407
1847.9698	5302.5
1846.3514	5358.5
1844.7346	5396
1843.1176	5314
1841.5001	5372.5
1839.8823	5374.5
1838.2644	5382
1836.6461	5470.5
1835.0275	5270.5
1833.4086	5407.5
1831.7893	5385.5
1830.168	5319
1828.5481	5265.5
1826.9281	5271
1825.3076	5331.5
1823.687	5267
1822.0659	5374.5
1820.4427	5290
1818.8212	5304
1817.1993	5305
1815.5771	5329.5
1813.9546	5335.5
1812.33	5232.5
1810.7069	5306
1809.0835	5289.5
1807.4598	5295.5
1805.834	5347.5
1804.2096	5361.5
1802.5851	5232.5
1800.9602	5247.5
1799.3331	5243
1797.7076	5287.5
1796.0819	5226
1794.4539	5332.5
1792.8275	5387
1791.2008	5200.5
1789.5719	5263
1787.9447	5357
1786.3152	5316
1784.6873	5248.5
1783.0591	5325
1781.4287	5248.5
1779.7999	5186
1778.1689	5277.5
1776.5396	5308
1774.9099	5281.5
1773.2781	5270.5
1771.6477	5287.5
1770.0153	5240
1768.3844	5065.5439
1766.7513	5263.5439
1765.1198	5257.5
1763.4861	5154.5
1761.854	5121.5
1760.2197	5238
1758.587	5260
1756.9521	5204.5
1755.3188	5274.5
1753.6833	5206
1752.0494	5183.5
1750.4133	5227
1748.7788	5323.5
1747.1421	5218.5
1745.505	5283
1743.8696	5300.5
1742.2319	5364.5
1740.5959	5323
1738.9578	5234
1737.3192	5160
1735.6823	5278
1734.0431	5344
1732.4037	5295.5
1730.7659	5322
1729.1257	5388.5
1727.4855	5273.5
1725.8467	5329.5
1724.2057	5364.5
1722.5645	5315.5
1720.9248	5286
1719.2828	5238.5439
1717.6407	5324.5
1715.9982	5356
1714.3573	5279.5439
1712.7142	5248
1711.0708	5273.5
1709.4271	5355
1707.785	5311.5
1706.1407	5249
1704.4961	5282.5
1702.8512	5359
1701.2059	5362
1699.5624	5374.5
1697.9165	5303.5
1696.2704	5325.5
1694.6239	5335.5
1692.9772	5435
1691.3301	5265.5
1689.6846	5313
1688.037	5345.5
1686.3889	5363.5
1684.7407	5340.5
1683.092	5347.5
1681.4432	5458.5439
1679.7939	5335.5
1678.1445	5443.5
1676.4946	5360.5
1674.8445	5479.5
1673.1941	5386.5
1671.5433	5419
1669.8923	5403.5
1668.241	5434
1666.5894	5423.5
1664.9374	5485.5
1663.285	5465.5439
1661.6324	5502.5439
1659.9796	5462.5
1658.3264	5544
1656.6729	5499.5439
1655.019	5617
1653.365	5650.5
1651.7106	5619
1650.0558	5679
1648.4008	5540.5
1646.7455	5628.5
1645.0897	5687
1643.4338	5721
1641.7775	5817.5
1640.119	5712.5439
1638.4622	5967.5
1636.8049	5916
1635.1475	5881.5439
1633.4896	5951.5439
1631.8314	6081.5
1630.173	6060.5
1628.5123	5948.5439
1626.8533	6169.5
1625.194	6119
1623.5343	6261
1621.8743	6312.5
1620.212	6346
1618.5515	6381.5
1616.8905	6446
1615.2294	6416
1613.5658	6439.5
1611.9041	6340.5
1610.2418	6418
1608.5795	6580.9336
1606.9147	6499.5
1605.2516	6504.5
1603.5883	6468
1601.9226	6401
1600.2585	6469.5
1598.5942	6349.5
1596.9277	6406
1595.2627	6405
1593.5975	6355
1591.9299	6367.5439
1590.264	6397.5
1588.5979	6207.5439
1586.9294	6370
1585.2627	6467.5
1583.5936	6333
1581.9261	6372.5439
1580.2584	6287
1578.5884	6285
1576.92	6237
1575.2494	6202.5
1573.5804	6206
1571.9092	6156
1570.2395	6124
1568.5676	6199.5
1566.8975	6128
1565.225	6180
1563.5541	6049.5
1561.881	6043
1560.2095	5961.5
1558.5356	5920
1556.8635	5881
1555.1892	5974.5
1553.5165	5937
1551.8414	5854.5439
1550.1681	5904
1548.4924	5849
1546.8164	5736.5439
1545.1422	5833.5439
1543.4656	5785.5
1541.7906	5778.5439
1540.1134	5563.5439
1538.4359	5590.5
1536.76	5601.5
1535.0819	5672.5439
1533.4034	5689.5439
1531.7266	5577.5
1530.0475	5685
1528.368	5588.5
1526.6903	5621
1525.0103	5485
1523.33	5469.5439
1521.6512	5462.5439
1519.9702	5578.5
1518.2889	5522.5
1516.6093	5492
1514.9274	5534.5
1513.2451	5462.5
1511.5625	5507.5
1509.8816	5399.5
1508.1985	5399.5439
1506.5149	5412
1504.8311	5454.4336
1503.147	5483.9336
1501.4645	5516
1499.7797	5380.5439
1498.0946	5446.5
1496.4092	5366.5
1494.7235	5487.5
1493.0375	5560.5
1491.353	5530.5
1489.6664	5445.5
1487.9794	5534.9336
1486.2921	5408.5
1484.6045	5519.5
1482.9165	5434.5
1481.2283	5457
1479.5397	5461
1477.8507	5479.5439
1476.1635	5481
1474.474	5507.5
1472.7842	5552.4336
1471.094	5417.5439
1469.4034	5501.5439
1467.7126	5452.5439
1466.0216	5585.5
1464.3301	5468.5439
1462.6383	5590.5
1460.9463	5580.5
1459.2539	5557.5
1457.5612	5569.5
1455.8682	5605.9336
1454.1748	5607.5
1452.4811	5610.5
1450.7871	5611
1449.0928	5606.5439
1447.3982	5593.9336
1445.7032	5621.5
1444.006	5481.5
1442.3104	5495.5
1440.6145	5678.4336
1438.9183	5535.5439
1437.2217	5616.5439
1435.5249	5665.9771
1433.8276	5508.5
1432.1301	5432.5439
1430.4324	5533.5439
1428.7322	5573.5
1427.0338	5466
1425.335	5499.5439
1423.6359	5483
1421.9364	5536.9336
1420.2367	5582
1418.5347	5508
1416.8342	5496.5439
1415.1335	5550.5
1413.4325	5576
1411.7291	5482.5439
1410.0275	5550.5
1408.3254	5436.5439
1406.6232	5508.5
1404.9186	5389.5
1403.2156	5642
1401.5123	5544
1399.8087	5555.5
1398.1028	5546
1396.3986	5499.5439
1394.694	5567
1392.9871	5528.5439
1391.2819	5595.5439
1389.5763	5540
1387.8684	5583.5439
1386.1622	5510
1384.4558	5575.4336
1382.7469	5607.4336
1381.0398	5549
1379.3323	5422.5439
1377.6226	5554.9336
1375.9144	5465.5439
1374.204	5450.5439
1372.4952	5542.5
1370.7861	5408
1369.0747	5476.5
1367.365	5521.5
1365.653	5463.5
1363.9425	5261.5439
1362.2299	5404.5439
1360.5188	5399
1358.8054	5448
1357.0938	5483
1355.3798	5339
1353.6674	5415.5
1351.9528	5288.5439
1350.2397	5451
1348.5245	5408.5439
1346.8108	5329
1345.0948	5289.5
1343.3806	5285.5439
1341.6641	5276.5439
1339.9491	5257.5439
1338.2318	5379.4336
1336.5162	5313.5
1334.7983	5196
1333.0801	5163.5
1331.3635	5182.5439
1329.6447	5154
1327.9275	5253
1326.2079	5109
1324.488	5223.5
1322.7699	5143
1321.0493	5150.4336
1319.3285	5144.5439
1317.6094	5153
1315.8878	5254.5
1314.166	5259.5439
1312.4458	5065.5439
1310.7234	5149.5439
1309.0006	5068.5439
1307.2794	5046.5439
1305.556	5210
1303.8322	5086.9336
1302.108	5011.5439
1300.3856	5147.5439
1298.6609	5095.5439
1296.9358	5033.5
1295.2103	5048.5
1293.4866	5056.4336
1291.7605	4928.5
1290.0341	4889.5
1288.3074	4788.5439
1286.5803	4892.9336
1284.8549	4952
1283.1272	4904
1281.399	4909.5
1279.6708	4963.9336
1277.942	4878.4336
1276.213	4816.5439
1274.4856	4794.4336
1272.7559	4925.9336
1271.0259	4728.5439
1269.2955	4848.5439
1267.5648	4844.5439
1265.8337	4810.9336
1264.1024	4782
1262.3707	4706.5439
1260.6388	4766.9336
1258.9084	4829.9771
1257.1758	4790.5439
1255.4427	4607.5439
1253.7095	4711.5
1251.9757	4641.4336
1250.2418	4760.5439
1248.5074	4648.5
1246.7728	4770.5
1245.0378	4645.5
1243.3025	4629.5439
1241.5669	4688.4336
1239.8308	4583.5
1238.0946	4570.5439
1236.3579	4661
1234.621	4597.5439
1232.8837	4572.5
1231.146	4670.4336
1229.4081	4585.9336
1227.6697	4674.5439
1225.9291	4589.4336
1224.1901	4480.5439
1222.4508	4533.9771
1220.7112	4509.5
1218.9712	4511.4771
1217.231	4439.5439
1215.4904	4450.4336
1213.7494	4367.9336
1212.0081	4405.4336
1210.2644	4419.5
1208.5225	4497
1206.7802	4509.9771
1205.0376	4416.4336
1203.2946	4415
1201.5513	4364.9336
1199.8057	4318
1198.0616	4283.4336
1196.3174	4352.5439
1194.5728	4260.5439
1192.8278	4279.9336
1191.0804	4247.5439
1189.3348	4257.5439
1187.5889	4261
1185.8427	4217.5
1184.094	4272
1182.347	4257.5
1180.5997	4172.4336
1178.8521	4188.5439
1177.1021	4195.9336
1175.3538	4228.4336
1173.6051	4080.5437
1171.8541	4191.5439
1170.1049	4132.5439
1168.3552	3929.5437
1166.6031	4169.4336
1164.8528	4133
1163.1022	4056.9333
1161.3491	3946.9771
1159.5979	4018.5437
1157.8462	4078
1156.0922	4093.9771
1154.3398	4013.4333
1152.5872	3881.5437
1150.8322	3932.4771
1149.0789	3956.9771
1147.3231	3920.5
1145.5691	3943.4771
1143.8127	3887.4333
1142.058	3889.5
1140.303	3901.5437
1138.5455	3866.4333
1136.7899	3882.5437
1135.0319	3858
1133.2755	3860.5437
1131.5167	3830.4771
1129.7596	3929.4771
1128.0002	3931.9333
1126.2426	3899.5437
1124.4824	3853
1122.724	3842.5437
1120.9633	3939.9771
1119.2042	3869.4771
1117.4427	3821.4771
1115.683	3813.4333
1113.9209	3793.5437
1112.1583	3813.5
1110.3976	3761.5437
1108.6345	3788.9771
1106.873	3754.9333
1105.1093	3729.5437
1103.347	3716.4333
1101.5826	3684.9771
1099.8177	3633.4333
1098.0546	3691.5437
1096.2891	3691.9771
1094.5232	3639.9333
1092.759	3706.9771
1090.9926	3708.4333
1089.2256	3643.4771
1087.4604	3658.4333
1085.6929	3638.4771
1083.925	3614.4333
1082.1588	3594.4771
1080.3903	3579.4771
1078.6213	3643.9771
1076.8541	3598.4771
1075.0845	3610.5437
1073.3146	3616.4771
1071.5442	3526.5437
1069.7756	3502.9771
1068.0046	3610.9333
1066.2334	3651.9333
1064.4617	3601.4333
1062.6918	3651.9333
1060.9194	3567.4333
1059.1467	3561.9333
1057.3737	3607.4771
1055.6024	3609.9771
1053.8287	3527.5437
1052.0547	3530.9771
1050.2803	3542.4333
1048.5055	3514.4771
1046.7305	3532.5437
1044.957	3483.9333
1043.1813	3469.4771
1041.4053	3453.5437
1039.6288	3379.9333
1037.8519	3516.9333
1036.0748	3539.4771
1034.2974	3405.5437
1032.5195	3409.5437
1030.7434	3466.9333
1028.965	3461.9333
1027.186	3401.5437
1025.4069	3392.4771
1023.6273	3348.9771
1021.8475	3336.4333
1020.0672	3335.4771
1018.2866	3402.9333
1016.5057	3358.9333
1014.7245	3431.9333
1012.9429	3393.9771
1011.1609	3467.9771
1009.3786	3340.4771
1007.5959	3332.5437
1005.813	3350.5437
1004.0297	3340.9333
1002.246	3409.9771
1000.462	3469.4333
998.67761	3397.9771
996.89288	3384.4771
995.10785	3284.9771
993.32245	3294.4771
991.53668	3322.5437
989.75055	3380.5437
987.96411	3347.4333
986.17529	3345.4333
984.38812	3351.9333
982.60065	3358.5437
980.81281	3211.4771
979.02466	3289.9771
977.23615	3205.9771
975.44727	3270.4771
973.65808	3300.9771
971.86853	3271.4771
970.07654	3246.9771
968.28625	3211.9771
966.49567	3296.4771
964.70471	3254.4333
962.91339	3193.9771
961.11969	3239.4771
959.3277	3245.5437
957.53534	3210.4333
955.74268	3224.4771
953.94965	3210.4333
952.15417	3165
950.36047	3134.9333
948.56635	3168.5437
946.77197	3114.9771
944.9751	3118.4771
943.17993	3101.9771
941.38446	3122.9771
939.58868	3144.4333
937.79041	3099.9333
935.9939	3123.5437
934.19702	3030.4771
932.39771	3038.9771
930.60016	3004.4771
928.80225	3064.9771
927.00397	3114.5437
925.20325	3021.4771
923.4043	2975.4771
921.60291	2991.4771
919.80322	2964.4771
918.00323	2993.5437
916.20074	3044.9771
914.40002	3054.4771
912.599	3004.9771
910.79547	2965.4771
908.99371	2974.4771
907.18951	3016.9771
905.38702	2943.9771
903.58423	2952.4771
901.77893	2932.4771
899.9754	2982.9771
898.16943	2941.9333
896.36523	2987.4771
894.55853	2892.9333
892.7536	2941.4771
890.94623	2951.9771
889.14063	2852.9771
887.33466	2937.4771
885.52618	2871.4333
883.71954	2908.4771
881.9104	2946.4771
880.10297	2945.9771
878.29315	2946.4771
876.48297	2959.4771
874.6745	2986.4771
872.86359	2859.4771
871.05444	2863.9771
869.24286	2871.9771
867.43298	2869.4771
865.62067	2842.9771
863.81012	2855.9333
861.99707	2909.9771
860.18372	2866.4771
858.37207	2872.4771
856.55798	2817.4771
854.74567	2891.4771
852.93085	2887.4771
851.11572	2894.9333
849.30231	2919.4771
847.48645	2795.9771
845.67023	2854.4771
843.85577	2895.9771
842.03888	2876.9771
840.22162	2757.9771
838.40607	2920.9771
836.58807	2794.9771
834.76978	2716.9771
832.95319	2797.4771
831.13409	2794.4771
829.3147	2843.9771
827.49707	2796.9771
825.67694	2740.4771
823.85645	2749.4333
822.03564	2687.9771
820.21655	2747.9333
818.39502	2784.9771
816.57312	2746.4771
814.75085	2716.9771
812.93036	2676.4771
811.10736	2698.4771
809.28406	2759.4333
807.46039	2672.4771
805.63635	2660.4771
803.81403	2674.9771
801.98932	2719.4333
800.16418	2676.4771
798.33875	2665.4333
796.51288	2682.4771
794.68671	2635.4771
792.8623	2640.9771
791.0354	2589.9333
789.20813	2627.4771
787.38049	2553.9771
785.55255	2571.9771
783.72418	2635.4333
781.89551	2605.4771
780.06647	2541.9771
778.23706	2604.4333
776.40936	2591.4333
774.57928	2594.9771
772.74878	2545.9771
770.91791	2609.4771
769.08673	2504.9771
767.25519	2567.4771
765.42322	2452.9771
763.59094	2472.4771
761.7583	2531.4771
759.92529	2605.9771
758.09198	2466.9771
756.25824	2539.4771
754.42413	2548.9771
752.58972	2532.9771
750.75488	2453.4771
748.91974	2500.9771
747.08423	2466.9771
745.24835	2526.9333
743.41211	2414.9771
741.5755	2537.4771
739.73853	2467.9333
737.90118	2418.9771
736.06348	2549.9771
734.22546	2476.4771
732.38702	2372.4771
730.54614	2385.9771
728.70697	2481.9771
726.86749	2518.4771
725.02765	2522.9771
723.18744	2424.9771
721.34686	2394.9771
719.50592	2418.9771
717.66461	2453.9771
715.82294	2412.4771
713.97876	2377.4771
712.13635	2350.4771
710.29358	2355.9771
708.4505	2378.9771
706.60699	2392.4771
704.76312	2382.9771
702.91681	2397.9771
701.0722	2353.9771
699.22729	2295.4771
697.38202	2369.9771
695.53418	2362.9771
693.68817	2354.9771
691.8418	2313.9771
689.995	2244.4771
688.14789	2344.9771
686.29828	2350.9771
684.45044	2316.9771
682.60223	2252.9771
680.75146	2266.9771
678.90253	2259.9771
677.05322	2255.9771
675.20361	2290.9333
673.35138	2298.4771
671.50098	2209.9771
669.65027	2195.4771
667.79694	2262.4771
665.94543	2248.4771
664.09363	2239.9771
662.23926	2280.4771
660.38666	2240.4771
658.53369	2254.9771
656.67822	2222.4771
654.82452	2291.9771
652.97046	2174.9771
651.11389	2214.4771
649.25909	2231.4771
647.40179	2190.9771
645.54626	2199.4771
643.69037	2228.4771
641.83197	2221.9771
639.97534	2284.4771
638.11621	2189.9771
636.25885	2188.4771
634.39899	2248.9771
632.54089	2201.4771
630.68243	2148.9771
628.82147	2166.4771
626.96228	2129.4771
625.10052	2167.4771
623.2406	2212.4771
621.37817	2146.4771
619.51746	2221.4771
617.6543	2140.9771
615.79291	2129.9771
613.92896	2135.4771
612.06683	2224.4771
610.20215	2164.4771
608.33929	2189.9771
606.47388	2199.4771
604.60809	2131.9771
602.74408	2128.4771
600.87756	2244.4771
599.01288	2192.4771
597.14563	2155.4771
595.28015	2186.4771
593.41217	2117.4771
591.54376	2124.9771
589.67719	2110.4771
587.80811	2043.9772
585.9408	2056.4771
584.07092	2076.9771
582.20074	2030.4772
580.33228	2144.4771
578.46136	2030.9772
576.59003	2040.9772
574.72046	2101.4771
572.84839	2018.9772
570.97595	2019.4772
569.10529	2074.9771
567.23212	2052.4771
565.35858	2063.4771
563.48682	2010.4772
561.61249	1950.4772
559.73779	1997.9772
557.86493	2042.9772
555.9895	2055.4771
554.11371	1846.9772
552.23755	1960.9772
550.36316	1988.9772
548.48627	1995.9772
546.60895	1912.4772
544.73132	2015.4772
542.85547	1914.9772
540.97705	2012.9772
539.09827	1973.4772
537.21912	2005.4772
535.3396	2006.9772
533.46185	1998.4772
531.5816	1993.4772
529.70093	1946.4772
527.81995	1915.9772
525.93854	1962.4772
524.05896	2010.4772
522.17682	1944.4772
520.29425	1942.9772
518.41138	1915.4772
516.52808	2002.9772
514.64447	1949.9772
512.76044	1897.9772
510.87604	1862.4772
508.99347	1888.9772
507.10831	1894.4772
505.22278	1899.9772
503.33688	1894.9772
501.45062	1859.4772
499.56396	1878.4772
497.67694	1897.4772
495.78955	1870.4772
493.90176	1757.9772
492.01361	1859.4772
490.12509	1820.9772
488.23618	1827.9772
486.34689	1872.4772
484.45724	1803.4772
482.5672	1860.9772
480.67679	1900.4772
478.78601	1846.9772
476.89484	1849.4772
475.0033	1787.4772
473.11136	1819.9772
471.21906	1863.4772
469.32639	1883.4772
467.43332	1780.4772
465.53989	1853.4772
463.64609	1805.4772
461.75189	1832.4772
459.85733	1776.4772
457.96237	1826.4772
456.06705	1800.4772
454.17136	1802.9772
452.27527	1767.4772
450.37881	1756.4772
448.48196	1790.9772
446.58475	1735.9772
444.68494	1694.4772
442.78696	1762.4772
440.88861	1659.9772
438.98987	1725.4772
437.09076	1765.4772
435.19125	1757.9772
433.29138	1711.4772
431.39111	1665.9772
429.48828	1654.9772
427.58728	1777.9772
425.68588	1649.4772
423.78409	1679.4772
421.88193	1619.9772
419.9772	1613.9772
418.07428	1711.9772
416.17096	1599.9772
414.26727	1627.9772
412.36322	1620.9772
410.45657	1620.9772
408.55176	1593.4772
406.64655	1630.4772
404.74094	1646.4772
402.83276	1586.9772
400.92642	1591.9772
399.01968	1590.9772
397.11258	1553.9772
395.20285	1580.9772
393.29498	1558.4772
391.38672	1553.9772
389.47586	1583.4772
387.56683	1495.9772
385.65741	1532.4772
383.74762	1646.9772
381.83521	1595.4772
379.92465	1582.9772
378.0137	1587.4772
376.10016	1506.9772
374.18845	1580.4772
372.27637	1664.4772
370.36166	1503.9772
368.44879	1519.4772
366.53333	1568.4772
364.61972	1529.9772
362.70569	1556.9772
360.78906	1539.4772
358.8743	1485.9772
356.95691	1507.4772
355.04135	1462.9772
353.1254	1489.9772
351.20685	1511.9772
349.29016	1486.4772
347.37082	1495.4772
345.45337	1410.9772
343.53326	1495.4772
341.61502	1478.4772
339.69638	1411.4772
337.77515	1479.9772
335.85571	1442.9772
333.93372	1401.9772
332.01352	1412.4772
330.09073	1430.4772
328.16977	1361.4772
326.24622	1480.9772
324.32449	1417.4772
322.40015	1384.4772
320.47766	1462.9772
318.55252	1399.4772
316.62701	1436.4772
314.70337	1444.9772
312.7771	1347.9772
310.85266	1359.4772
308.9256	1435.9772
307.0004	1423.9772
305.07257	1396.4772
303.14658	1346.4772
301.21796	1431.9772
299.28897	1398.9772
297.36182	1352.9772
295.43204	1383.9772
293.50412	1412.9772
291.57355	1383.9772
289.64261	1363.4772
287.71353	1340.4772
285.7818	1300.9772
283.8497	1292.9772
281.91943	1332.4772
279.98654	1382.9772
278.05325	1347.4772
276.12183	1313.9772
